1003
1003
1003
1003
1003
1003
1003
1003
999
995
994
989
985
983
984
984
985
984
984
982
982
986
986
984
981
979
979
982
982
978
975
972
973
975
978
975
968
973
991
1021
1056
1099
1153
1221
1298
1369
1411
1403
1349
1280
1207
1134
1076
1033
1002
982
973
972
977
977
970
966
963
965
965
964
958
957
959
959
961
960
958
958
959
961
960
959
959
956
959
964
964
961
960
957
958
963
964
962
959
957
961
965
962
962
959
961
964
966
969
969
967
966
969
972
975
973
973
973
978
982
988
990
990
990
991
998
1002
1002
1002
1003
1005
1008
1014
1014
1014
1014
1016
1020
1021
1020
1015
1014
1014
1017
1015
1011
1003
1001
1000
1002
1001
994
988
985
985
985
985
981
975
974
975
977
977
977
972
970
973
976
975
972
967
966
971
974
973
973
970
968
972
975
975
975
970
972
976
977
976
974
973
974
979
986
986
985
985
991
998
1011
1020
1023
1032
1047
1069
1090
1107
1118
1130
1149
1178
1202
1224
1238
1255
1277
1304
1331
1356
1365
1359
1344
1329
1318
1305
1286
1269
1263
1254
1241
1226
1211
1199
1201
1204
1199
1176
1145
1115
1080
1049
1010
975
944
926
922
915
905
897
893
889
887
883
880
880
877
874
871
874
870
865
865
860
860
859
853
852
848
847
843
843
843
839
836
829
828
828
831
831
825
821
820
819
818
817
817
816
817
816
825
826
824
822
825
831
842
843
843
847
854
866
875
880
881
885
891
903
911
916
918
921
929
935
941
942
942
942
945
948
953
953
947
946
946
952
956
954
951
947
947
952
955
951
952
950
952
955
956
952
950
950
953
957
958
955
954
953
957
958
960
960
959
956
960
963
963
965
966
964
964
965
966
968
965
963
964
966
968
967
968
961
967
969
971
972
969
966
968
969
971
972
970
967
968
971
973
972
970
968
968
970
972
972
973
969
966
969
974
973
972
967
966
968
972
974
967
968
968
971
975
977
971
968
968
973
977
978
974
972
972
977
977
978
974
973
973
977
980
977
975
972
973
978
982
982
978
978
982
988
994
992
990
989
997
1006
1011
1011
1005
1003
1005
1006
1010
1007
999
995
994
995
991
983
975
974
977
982
980
976
973
971
973
977
974
970
966
968
975
980
977
975
972
972
974
979
979
974
970
972
984
1007
1036
1067
1108
1160
1220
1277
1317
1321
1276
1211
1142
1072
1018
988
973
973
970
970
969
971
970
969
967
965
963
962
962
962
961
961
960
963
965
966
964
960
965
965
965
965
965
967
968
968
972
966
970
971
974
975
975
970
973
975
979
981
981
978
979
985
985
987
985
987
990
994
998
1000
999
1000
1002
1008
1012
1017
1018
1018
1021
1025
1032
1036
1038
1036
1037
1042
1049
1054
1048
1049
1048
1052
1058
1059
1056
1053
1049
1052
1053
1052
1046
1038
1032
1030
1032
1028
1020
1012
1010
1008
1009
1007
1001
992
988
991
991
991
983
977
978
980
984
982
979
973
974
979
980
982
977
974
973
978
979
979
979
973
975
978
982
984
981
977
978
980
983
984
978
975
977
981
984
985
980
974
972
978
980
982
979
975
980
984
989
992
988
988
993
1001
1008
1012
1010
1008
1007
1011
1013
1012
1007
1001
999
997
998
996
988
980
976
975
976
977
973
972
977
985
994
1004
1012
1017
1031
1047
1064
1082
1094
1107
1122
1138
1150
1158
1162
1173
1190
1212
1229
1236
1241
1262
1298
1326
1345
1356
1362
1377
1395
1411
1413
1371
1291
1210
1146
1090
1044
1004
971
949
942
943
941
932
925
915
915
915
915
912
906
901
902
902
903
904
898
895
898
901
901
901
892
887
889
892
894
893
886
880
879
884
884
881
875
872
871
873
873
873
866
863
865
867
870
868
864
859
858
860
864
866
863
856
858
863
867
871
871
868
872
881
890
890
889
889
897
906
913
917
915
920
925
935
941
945
941
940
948
952
954
956
954
951
950
956
962
959
953
950
953
956
958
958
950
947
952
954
956
959
953
949
954
955
958
959
952
951
954
956
960
958
954
953
953
957
959
958
955
953
953
959
963
967
965
969
975
986
994
997
1002
1013
1033
1058
1078
1102
1122
1143
1166
1185
1206
1219
1231
1245
1261
1270
1270
1259
1244
1229
1223
1220
1218
1210
1201
1195
1197
1200
1200
1203
1200
1201
1193
1181
1155
1128
1084
1043
1009
983
963
949
938
929
926
918
909
900
891
886
882
881
879
871
863
860
862
864
862
858
855
851
848
850
848
845
840
836
835
832
830
830
822
821
821
821
820
812
808
803
805
806
802
800
796
796
796
796
799
802
802
803
804
808
814
822
827
830
832
843
851
858
862
869
877
886
893
901
904
908
909
916
922
927
927
926
928
933
933
935
935
933
931
938
940
941
936
931
936
940
944
942
942
935
937
940
946
945
945
940
939
943
945
947
947
942
945
947
951
953
949
945
946
948
954
954
951
947
946
955
956
952
948
949
956
959
957
954
953
956
960
961
961
957
956
957
962
963
960
951
948
955
956
960
958
958
955
957
960
963
963
959
959
958
966
966
965
960
958
958
965
967
963
956
957
959
959
963
961
959
957
959
964
965
962
960
958
960
962
968
965
960
957
958
960
965
967
960
960
962
964
970
969
964
962
963
967
969
969
964
961
960
967
972
968
965
965
967
968
969
967
966
964
963
966
971
966
967
965
965
968
972
971
966
961
963
967
972
967
968
964
965
970
972
972
968
966
966
967
973
974
973
971
975
979
984
987
986
986
987
993
1002
1004
1005
1003
1004
1005
1007
1008
1000
994
990
995
994
993
986
984
983
977
982
982
978
975
971
975
979
979
978
972
975
978
980
979
976
975
973
977
978
980
976
974
970
969
973
983
1001
1029
1066
1121
1183
1240
1290
1328
1336
1295
1223
1138
1059
1005
984
980
979
980
974
973
974
980
979
976
974
971
969
974
972
967
964
966
966
971
972
971
969
968
967
973
977
971
970
969
970
974
979
980
977
976
976
978
982
983
980
982
985
986
989
992
992
991
993
998
997
999
1001
1002
1002
1008
1011
1014
1012
1014
1015
1023
1027
1028
1029
1027
1031
1037
1045
1047
1045
1043
1049
1052
1058
1057
1055
1054
1055
1060
1063
1067
1064
1065
1065
1066
1067
1068
1061
1059
1058
1058
1060
1056
1050
1044
1038
1034
1031
1029
1026
1021
1017
1015
1012
1011
1008
1006
1006
1005
1007
1006
1005
1002
1002
1003
1006
1005
1000
1000
999
1003
1004
1003
1003
1004
1002
1004
1004
1002
1001
1000
1000
1002
1006
1004
1001
1001
1003
1005
1006
1006
1004
1003
1006
1004
1010
1009
1006
1006
1008
1015
1014
1017
1018
1018
1019
1029
1031
1036
1034
1033
1037
1040
1042
1044
1043
1046
1054
1063
1069
1079
1087
1096
1114
1135
1149
1159
1166
1180
1194
1211
1233
1250
1263
1273
1285
1307
1331
1351
1353
1346
1336
1330
1324
1314
1298
1285
1275
1271
1261
1253
1241
1232
1226
1225
1223
1216
1202
1181
1160
1136
1103
1062
1019
987
966
952
948
938
928
924
922
921
918
914
908
906
905
907
905
903
901
898
898
898
898
895
889
885
884
885
882
877
874
872
870
872
871
870
863
859
859
861
860
858
851
850
847
848
848
849
847
844
847
846
847
845
846
846
848
854
857
861
859
862
867
875
883
886
888
890
901
910
920
926
930
934
942
948
955
960
960
963
968
976
979
981
978
979
979
980
984
986
981
979
979
984
983
984
981
977
980
984
986
985
979
980
981
982
983
983
979
976
979
981
982
981
978
974
976
983
984
984
982
980
980
984
984
985
984
981
981
987
987
988
986
984
986
990
992
990
989
987
988
992
994
995
991
990
991
994
996
996
998
999
1002
1009
1017
1025
1031
1038
1051
1065
1077
1090
1102
1117
1133
1153
1175
1193
1205
1218
1234
1253
1276
1292
1304
1315
1331
1353
1362
1353
1340
1322
1311
1303
1295
1288
1278
1269
1260
1259
1257
1253
1247
1240
1241
1245
1244
1233
1208
1182
1149
1110
1069
1027
997
974
956
948
943
936
928
923
920
919
918
915
909
904
901
903
904
900
894
890
890
890
889
890
883
882
878
878
879
874
869
866
863
866
864
863
859
857
855
854
855
851
848
847
846
848
845
843
840
837
840
844
844
846
843
843
844
849
854
861
862
866
872
876
887
895
898
904
912
923
931
932
940
941
951
963
967
969
970
973
976
984
987
990
988
987
989
992
993
994
988
987
989
991
992
992
988
986
987
991
993
991
984
985
986
992
995
992
989
989
988
994
993
994
992
990
991
995
997
994
992
991
995
997
1000
999
998
994
997
1001
1002
1001
996
994
998
1000
1000
1001
996
994
997
1001
1003
1003
997
999
998
1000
1005
1003
1000
998
1000
1003
1006
1003
1001
1001
1002
1004
1006
1003
1002
999
1001
1005
1007
1007
1005
1000
1002
1004
1007
1008
1003
1003
1001
1005
1007
1006
1002
1001
1003
1007
1007
1006
1001
1000
1003
1006
1009
1009
1009
1009
1011
1018
1018
1021
1020
1019
1023
1030
1037
1040
1037
1035
1037
1040
1040
1035
1029
1024
1024
1025
1023
1020
1013
1010
1009
1010
1009
1006
1002
1000
1000
1000
1002
1000
999
1000
1002
1002
1003
1001
1000
1001
1004
1007
1007
1003
1003
1004
1006
1004
1005
1012
1023
1046
1081
1122
1169
1218
1266
1310
1350
1366
1338
1271
1192
1123
1070
1042
1027
1013
1000
992
996
1004
1006
1002
997
994
995
996
997
993
988
991
992
993
995
993
988
989
993
994
995
995
990
993
996
997
1001
999
997
998
999
1003
1006
1006
1006
1005
1006
1010
1018
1014
1016
1015
1018
1024
1028
1028
1027
1026
1031
1040
1046
1047
1045
1042
1047
1057
1060
1064
1065
1063
1065
1073
1078
1081
1082
1082
1086
1089
1092
1091
1087
1090
1089
1093
1093
1088
1077
1074
1071
1071
1066
1060
1055
1048
1046
1045
1040
1032
1025
1022
1021
1022
1020
1017
1012
1006
1009
1013
1015
1011
1007
1005
1008
1010
1010
1010
1006
1005
1005
1007
1009
1008
1006
1005
1006
1007
1010
1005
1005
1005
1009
1010
1013
1011
1009
1008
1011
1015
1014
1012
1010
1010
1009
1011
1013
1011
1009
1010
1011
1013
1006
1010
1012
1013
1018
1022
1025
1024
1024
1027
1030
1038
1042
1043
1040
1040
1039
1040
1039
1038
1034
1033
1034
1036
1038
1040
1042
1045
1055
1065
1076
1086
1094
1106
1122
1140
1153
1166
1175
1187
1200
1217
1235
1249
1259
1272
1294
1317
1333
1338
1330
1320
1310
1301
1294
1289
1287
1290
1292
1298
1298
1297
1298
1299
1301
1300
1287
1264
1228
1183
1136
1087
1042
1006
977
957
948
944
941
933
927
922
920
920
920
917
910
907
908
910
911
905
902
899
901
900
898
894
889
887
890
891
888
880
874
874
875
877
876
871
868
865
864
867
865
863
856
851
852
856
858
855
851
848
852
854
857
856
853
853
856
859
865
864
865
868
873
879
884
889
892
896
905
917
925
927
930
931
943
952
962
964
964
969
975
983
985
983
981
980
982
987
989
987
986
982
981
987
988
989
983
984
985
989
989
989
984
983
984
986
989
985
983
983
984
988
991
991
988
985
988
990
995
991
990
985
986
992
996
995
989
990
993
996
998
998
996
999
1008
1012
1022
1025
1028
1034
1043
1056
1069
1083
1098
1113
1128
1148
1165
1178
1191
1210
1226
1243
1255
1265
1278
1295
1313
1322
1322
1306
1294
1282
1276
1271
1263
1255
1247
1239
1236
1239
1241
1244
1247
1254
1258
1248
1232
1207
1173
1135
1095
1059
1025
1003
982
971
962
957
947
938
931
926
924
923
920
915
908
907
906
905
904
900
893
895
894
896
894
889
883
878
878
880
879
873
868
864
865
867
866
860
857
853
852
853
851
846
845
844
846
850
849
848
848
847
850
856
858
859
859
864
871
875
883
885
886
895
900
908
914
917
921
929
936
944
949
953
950
955
963
969
974
973
975
974
974
979
978
975
976
975
979
983
980
979
979
977
977
982
982
978
978
976
980
982
980
981
978
980
982
987
986
982
982
981
986
990
992
989
987
982
988
992
992
990
988
987
992
995
995
994
990
991
995
999
998
998
992
995
996
999
998
996
993
993
993
998
998
997
995
994
999
1002
999
994
996
995
998
999
1001
1000
997
993
994
998
998
996
993
995
997
999
1001
997
995
993
998
1002
1000
999
995
996
997
1002
1000
997
993
995
996
998
999
998
996
997
999
1003
1003
1000
1000
999
1002
1003
1004
1000
995
996
1000
1005
1006
1001
997
998
1000
1001
1003
1000
999
999
1002
1006
1002
1000
1000
1002
1000
1002
1002
1001
997
999
1002
1005
1007
1006
1000
1005
1009
1011
1014
1012
1012
1015
1022
1027
1029
1028
1029
1033
1036
1039
1038
1036
1030
1026
1031
1029
1027
1020
1014
1011
1009
1011
1006
1001
1000
997
998
1000
998
997
994
996
1000
1003
1002
1000
998
997
1001
1003
1000
994
987
988
1000
1025
1053
1087
1133
1189
1249
1302
1343
1349
1313
1240
1155
1069
1007
987
988
992
995
995
995
998
994
990
989
990
992
992
988
987
988
991
996
993
990
988
990
992
994
993
991
990
991
994
996
994
991
992
993
996
1001
999
998
997
998
1005
1005
1003
1004
1006
1009
1015
1017
1014
1016
1016
1020
1026
1026
1029
1028
1033
1035
1041
1044
1044
1043
1045
1052
1056
1058
1058
1056
1056
1058
1067
1071
1069
1070
1070
1073
1075
1077
1075
1074
1070
1069
1067
1067
1063
1055
1049
1048
1044
1043
1039
1034
1028
1024
1022
1021
1018
1009
1005
1002
1006
1007
1001
1000
999
996
1000
997
994
993
991
996
998
1000
999
995
993
995
999
998
1000
998
997
997
999
1002
997
995
995
994
999
1000
1001
998
995
996
1000
1002
1002
999
1003
1006
1012
1016
1016
1016
1017
1024
1032
1035
1032
1028
1025
1026
1029
1031
1030
1024
1025
1033
1039
1046
1046
1050
1057
1072
1090
1106
1116
1129
1141
1156
1177
1191
1205
1217
1232
1247
1262
1278
1296
1314
1325
1328
1323
1310
1293
1281
1272
1262
1254
1248
1236
1224
1221
1223
1222
1222
1217
1213
1205
1194
1173
1148
1112
1064
1022
988
962
945
932
923
919
913
916
910
905
898
897
898
898
897
893
888
885
885
886
885
880
876
872
870
870
866
865
860
859
855
856
855
853
847
845
843
846
844
839
832
832
835
832
831
830
826
826
828
831
832
832
829
831
837
842
845
845
845
850
856
867
872
875
880
886
894
903
908
916
917
923
932
940
943
944
948
949
958
959
963
963
959
960
963
967
968
963
961
959
961
967
967
965
961
961
961
966
966
965
963
961
963
964
965
964
962
960
962
965
968
968
964
963
962
968
971
972
970
968
970
976
976
976
976
974
977
979
981
980
975
974
979
984
989
990
994
999
1010
1020
1026
1035
1043
1051
1073
1095
1114
1127
1143
1157
1177
1196
1214
1236
1253
1270
1295
1322
1336
1342
1331
1315
1302
1290
1280
1273
1263
1256
1249
1243
1235
1230
1221
1219
1224
1229
1221
1204
1178
1148
1115
1075
1034
997
960
942
932
930
926
919
911
904
901
902
899
893
887
886
887
888
887
880
875
873
875
876
872
867
861
857
856
858
855
849
844
840
841
841
839
834
830
826
826
827
829
826
820
821
827
835
839
837
839
843
855
863
872
880
881
890
900
911
919
925
930
936
945
954
957
961
962
965
969
972
975
972
970
966
972
978
979
976
973
972
973
977
979
977
972
972
974
978
972
974
971
973
974
980
979
978
975
976
981
985
985
982
977
979
983
988
987
985
982
983
988
992
991
988
986
986
990
992
993
990
988
986
989
993
994
991
987
988
991
995
996
991
991
992
991
995
996
993
991
990
995
996
997
995
994
993
997
998
997
997
993
992
994
998
996
997
992
993
995
999
1000
998
994
993
999
999
995
995
995
995
997
999
997
993
996
996
999
1000
1001
999
995
995
997
1001
1003
1002
1003
1004
1008
1014
1015
1017
1019
1021
1028
1034
1034
1031
1030
1029
1031
1029
1025
1020
1014
1014
1013
1013
1011
1006
1001
999
999
999
999
996
991
995
995
997
998
995
993
996
999
1001
999
996
995
995
1000
1001
999
993
991
994
1010
1032
1059
1092
1130
1174
1223
1274
1318
1344
1332
1280
1211
1143
1082
1044
1024
1010
1001
995
992
991
997
998
997
997
994
989
987
987
988
991
990
983
984
985
989
988
991
988
986
985
990
994
993
991
988
987
993
994
996
996
993
993
999
1004
1005
1003
999
996
1002
1009
1009
1006
1004
1007
1011
1018
1022
1016
1016
1013
1021
1029
1033
1031
1027
1029
1035
1046
1047
1048
1046
1049
1055
1062
1065
1066
1065
1066
1071
1075
1078
1078
1077
1076
1079
1086
1088
1087
1083
1079
1079
1082
1082
1072
1065
1058
1058
1059
1055
1052
1040
1036
1034
1035
1028
1030
1020
1017
1015
1018
1017
1013
1008
1000
996
1002
1003
1003
999
999
999
1002
1002
1003
1000
997
997
1000
1001
1004
999
998
999
1000
1003
1005
999
1001
1004
1008
1008
1003
1000
998
998
1001
1003
1005
1002
1004
1003
1005
1004
1002
1002
1000
1003
1002
1002
1002
1000
1006
1010
1012
1014
1014
1015
1016
1021
1025
1028
1029
1029
1029
1033
1037
1035
1028
1025
1026
1030
1033
1033
1031
1029
1034
1038
1049
1056
1058
1065
1078
1094
1111
1127
1138
1147
1160
1175
1190
1204
1217
1232
1247
1261
1273
1292
1308
1323
1334
1335
1333
1325
1313
1302
1290
1283
1281
1273
1268
1258
1252
1253
1256
1255
1252
1249
1242
1230
1216
1197
1167
1128
1083
1043
1006
981
959
945
935
932
933
931
925
916
909
908
908
909
908
903
902
900
900
899
894
890
890
893
897
891
887
886
884
885
886
884
879
876
875
874
874
870
864
859
859
861
862
862
858
852
851
852
852
854
851
846
842
848
853
858
852
852
850
855
861
863
865
863
865
869
877
881
885
888
892
895
904
911
918
923
925
931
939
947
955
955
961
966
974
977
977
976
977
979
984
985
985
982
983
983
985
988
985
983
982
983
986
988
989
987
986
988
989
989
989
988
990
992
989
988
986
986
989
990
990
991
988
987
988
990
991
990
991
987
989
990
991
990
989
990
989
993
997
1000
1004
1003
1008
1017
1027
1036
1041
1048
1057
1071
1088
1102
1119
1133
1148
1166
1185
1201
1212
1229
1250
1269
1285
1301
1315
1334
1350
1358
1356
1348
1332
1320
1308
1295
1287
1271
1258
1245
1235
1231
1231
1228
1224
1223
1217
1201
1176
1143
1104
1062
1026
999
979
963
950
941
935
933
929
927
922
920
917
916
915
912
910
905
904
904
903
903
898
895
894
895
894
890
888
883
886
885
884
882
877
871
870
868
870
868
863
860
859
859
859
859
854
852
852
852
854
853
850
850
849
853
859
860
858
860
865
871
876
876
878
884
889
897
908
913
914
921
928
938
949
953
954
958
962
967
976
977
977
976
979
980
988
986
983
982
981
986
987
988
985
981
984
986
987
985
979
981
983
986
990
987
981
976
979
985
991
993
987
984
985
987
990
992
988
986
988
990
994
996
990
990
993
996
999
997
997
990
992
998
1002
1002
997
995
995
997
1000
1006
1002
995
997
1002
1006
1005
1003
996
997
1002
1005
1006
1003
1002
1001
1004
1007
1007
1002
996
996
1000
1006
1006
1004
999
998
999
1004
1007
1003
1003
999
1001
1006
1008
1006
1003
1001
1002
1006
1006
1005
1004
999
1003
1009
1010
1007
1007
1003
1007
1010
1012
1011
1013
1013
1018
1022
1025
1024
1027
1029
1032
1038
1041
1042
1042
1041
1040
1041
1041
1035
1033
1031
1029
1028
1022
1019
1013
1012
1013
1014
1011
1008
1004
1002
1002
1003
1005
1004
1001
1002
1000
1006
1007
1005
1003
1004
1002
1003
1007
1004
1001
996
996
1010
1035
1062
1094
1131
1184
1245
1302
1349
1368
1348
1289
1215
1140
1073
1024
1003
998
1000
1003
995
997
997
1002
1001
1001
998
996
996
997
996
994
993
992
993
994
995
996
997
994
995
995
994
998
995
993
997
997
1000
1002
1000
998
1000
1004
1002
1005
1003
1005
1007
1010
1013
1017
1014
1014
1014
1016
1022
1023
1026
1027
1027
1030
1033
1035
1037
1039
1040
1041
1048
1052
1052
1056
1058
1061
1068
1067
1070
1072
1070
1073
1077
1077
1081
1079
1080
1078
1083
1081
1078
1075
1075
1078
1074
1067
1066
1059
1057
1052
1052
1046
1041
1038
1031
1030
1025
1024
1020
1013
1012
1007
1010
1009
1004
1003
1003
1003
1004
1004
1003
1001
998
1001
1004
1007
1006
1003
1002
1001
1006
1008
1007
1003
1001
1004
1008
1011
1006
1004
1000
1002
1005
1006
1008
1005
1001
1003
1010
1008
1009
1005
1001
1005
1009
1012
1012
1012
1012
1018
1021
1024
1025
1028
1028
1032
1039
1039
1038
1031
1027
1029
1030
1028
1024
1016
1007
1005
1007
1007
1004
1001
1004
1014
1024
1030
1036
1044
1058
1073
1091
1105
1119
1127
1143
1162
1174
1184
1193
1208
1229
1246
1258
1270
1281
1296
1322
1341
1355
1363
1370
1383
1405
1424
1433
1395
1318
1233
1163
1108
1057
1018
989
971
962
960
954
946
940
935
931
931
927
923
920
919
919
919
921
918
915
913
915
916
917
915
909
907
908
910
911
906
904
903
898
902
900
897
895
893
891
891
889
889
883
882
884
884
883
881
880
877
880
880
882
882
882
882
882
884
884
889
889
894
897
902
905
908
913
915
922
927
933
938
943
947
953
955
961
963
968
968
970
976
978
981
979
982
981
983
984
979
981
976
976
982
980
979
979
975
977
979
981
981
980
977
980
984
985
985
982
978
978
983
983
985
983
978
980
982
983
982
978
976
978
981
985
986
984
978
978
983
988
992
993
994
996
1005
1012
1020
1024
1028
1039
1056
1074
1091
1103
1115
1127
1147
1168
1183
1193
1201
1214
1230
1241
1260
1276
1289
1296
1301
1300
1291
1279
1269
1264
1258
1261
1258
1249
1237
1232
1230
1229
1233
1235
1230
1218
1198
1170
1138
1097
1050
1009
979
959
945
935
927
923
919
918
912
904
904
900
899
897
896
892
885
886
886
888
887
881
875
873
872
873
871
867
861
859
861
856
852
847
844
845
844
845
841
836
830
824
831
832
828
827
824
823
828
833
831
829
829
831
837
843
846
850
852
855
862
870
878
883
885
893
902
913
919
920
923
929
938
945
947
951
952
955
962
966
966
965
965
965
970
973
973
968
965
965
966
969
970
971
971
970
968
973
972
969
968
968
975
974
975
972
970
972
974
978
980
977
974
975
976
977
979
979
974
975
980
983
983
980
980
979
983
982
984
982
978
978
982
985
984
981
978
982
984
983
981
977
978
982
982
985
987
983
979
981
981
985
985
984
982
981
984
987
989
984
979
984
987
990
989
984
982
983
985
989
990
986
982
982
987
989
986
984
981
983
988
989
988
984
985
984
986
991
990
985
985
985
987
990
990
983
985
987
989
992
990
988
982
984
989
993
993
987
984
985
990
990
993
991
988
989
994
997
998
998
997
1000
1002
1008
1006
1009
1013
1017
1022
1027
1027
1023
1016
1016
1016
1018
1017
1010
1001
998
995
996
993
988
983
988
990
992
990
990
987
986
990
991
994
987
989
985
988
990
990
990
987
989
990
989
989
1001
1022
1049
1087
1133
1183
1240
1294
1330
1324
1272
1198
1119
1046
1002
989
991
986
983
981
985
986
986
984
981
975
979
979
983
981
979
976
974
979
983
983
983
980
977
977
984
985
984
983
983
985
987
988
985
983
985
988
995
995
996
993
998
1002
1005
1005
1003
1004
1008
1011
1018
1018
1013
1016
1018
1024
1027
1030
1029
1030
1034
1039
1042
1044
1042
1042
1046
1051
1056
1058
1057
1057
1061
1063
1069
1071
1067
1063
1063
1065
1067
1059
1049
1049
1041
1042
1046
1043
1037
1030
1025
1024
1020
1020
1016
1008
1003
1004
1003
1005
1000
993
994
995
998
997
995
992
992
995
999
998
997
995
998
994
1000
1001
998
996
994
997
1003
1002
997
994
995
999
1000
1002
1000
996
992
1000
1005
1005
1003
1002
1004
1010
1014
1016
1012
1015
1019
1027
1034
1037
1032
1030
1028
1030
1030
1029
1022
1015
1017
1016
1016
1009
1003
994
1000
1008
1022
1027
1031
1037
1047
1064
1081
1099
1112
1125
1137
1153
1171
1184
1193
1207
1227
1246
1260
1273
1290
1310
1331
1339
1337
1332
1334
1345
1358
1365
1376
1384
1387
1387
1377
1338
1273
1203
1142
1090
1045
1015
995
981
964
949
942
939
935
932
926
920
922
920
923
917
911
907
910
913
915
911
906
902
902
905
907
905
899
896
896
895
897
891
888
881
883
883
887
884
880
872
871
870
873
873
868
865
864
864
865
865
861
857
860
862
865
866
864
862
866
874
878
882
880
880
888
896
906
913
912
914
920
927
938
944
947
951
958
964
971
974
974
975
977
982
987
985
982
980
982
984
989
987
983
983
986
989
992
992
989
986
990
992
994
992
989
989
991
992
993
994
991
987
991
992
994
997
992
995
998
999
1001
1001
997
999
998
1002
1002
1005
1002
1002
1003
1004
1007
1009
1007
1005
1008
1011
1012
1009
1013
1018
1022
1028
1035
1043
1051
1061
1072
1087
1098
1112
1127
1140
1154
1171
1189
1202
1210
1218
1230
1249
1272
1282
1295
1312
1330
1348
1353
1348
1332
1314
1302
1293
1286
1282
1278
1269
1262
1256
1256
1249
1243
1240
1241
1237
1230
1210
1183
1150
1120
1085
1048
1017
989
963
954
946
946
940
934
929
924
920
920
917
912
906
905
907
907
904
898
891
888
891
890
891
886
878
878
876
877
876
871
868
863
862
862
862
856
850
851
851
851
852
848
845
844
844
847
847
845
843
843
844
848
854
856
856
860
867
872
880
882
886
897
906
914
924
927
931
935
948
958
963
969
971
977
982
991
994
995
994
998
1000
1002
1005
1001
996
998
1001
1004
1002
1002
997
997
1001
1005
1004
1001
999
997
999
1002
1003
997
994
997
1002
1004
1007
1000
1001
1001
1005
1009
1009
1005
1007
1006
1009
1012
1012
1009
1010
1012
1015
1019
1018
1012
1009
1008
1015
1018
1019
1017
1013
1011
1016
1020
1020
1018
1016
1014
1018
1021
1021
1015
1012
1013
1017
1017
1018
1013
1010
1011
1016
1021
1020
1018
1016
1014
1017
1023
1022
1019
1015
1016
1020
1024
1023
1020
1019
1020
1025
1027
1031
1028
1029
1033
1037
1043
1045
1045
1052
1057
1059
1060
1057
1049
1046
1045
1042
1039
1036
1028
1024
1023
1024
1024
1023
1020
1018
1018
1020
1027
1023
1023
1020
1021
1023
1027
1025
1023
1018
1019
1022
1019
1017
1015
1026
1050
1079
1118
1162
1209
1262
1314
1360
1381
1348
1269
1188
1118
1073
1053
1042
1027
1013
1008
1012
1020
1020
1014
1011
1007
1007
1006
1006
1003
999
1001
1004
1007
1004
1003
1004
1003
1002
1008
1007
1005
1001
1002
1005
1009
1012
1009
1004
1009
1008
1012
1016
1011
1012
1014
1016
1021
1021
1018
1022
1026
1026
1036
1036
1033
1034
1037
1043
1050
1050
1051
1052
1058
1062
1068
1074
1071
1073
1076
1077
1081
1084
1084
1084
1089
1092
1096
1095
1092
1092
1094
1098
1097
1093
1085
1080
1078
1076
1072
1066
1059
1051
1049
1047
1045
1042
1034
1026
1025
1024
1023
1021
1016
1012
1010
1011
1012
1006
1000
998
998
1001
1007
1010
1007
1008
1007
1008
1013
1013
1008
1006
1006
1010
1013
1011
1009
1006
1006
1011
1008
1010
1005
1003
1003
1009
1011
1011
1008
1005
1008
1009
1011
1010
1006
1007
1006
1009
1006
1005
1003
1003
1003
1005
1008
1010
1010
1012
1014
1015
1020
1025
1025
1025
1027
1034
1037
1037
1033
1030
1032
1033
1031
1028
1020
1016
1012
1009
1009
1006
1003
1003
1006
1015
1023
1031
1036
1048
1063
1080
1098
1108
1116
1128
1142
1159
1174
1185
1195
1208
1227
1251
1266
1279
1295
1310
1332
1342
1355
1357
1363
1370
1382
1398
1411
1423
1436
1440
1418
1365
1292
1224
1162
1099
1054
1022
999
984
968
959
955
953
953
948
942
936
935
934
933
931
925
923
923
925
926
925
918
915
911
918
919
918
912
908
906
907
910
906
899
895
895
897
899
897
892
888
884
888
890
891
886
879
879
882
885
886
885
881
882
885
886
886
887
885
889
893
897
899
897
898
904
909
914
919
919
919
927
934
942
946
946
948
950
958
964
969
971
971
974
976
983
988
987
984
985
987
990
990
984
987
984
989
990
991
987
982
986
990
992
992
988
988
990
992
992
996
992
990
990
992
995
997
993
993
996
1002
1009
1016
1018
1023
1028
1036
1055
1071
1083
1096
1112
1129
1147
1165
1181
1201
1214
1229
1248
1261
1272
1279
1300
1322
1333
1331
1317
1306
1296
1290
1283
1275
1269
1262
1253
1250
1247
1242
1237
1234
1233
1221
1203
1181
1149
1111
1074
1046
1023
1004
989
977
970
967
963
955
946
934
928
927
924
919
915
906
905
905
904
903
898
896
892
893
895
893
887
881
880
882
881
879
875
869
868
867
870
870
868
865
861
864
866
862
857
855
853
857
859
858
856
856
857
862
868
868
867
867
872
881
888
892
893
897
901
906
913
917
918
924
932
939
948
953
954
956
960
965
971
972
971
969
970
975
978
980
975
974
975
978
979
980
978
975
976
979
983
979
979
977
979
983
986
986
981
977
980
981
985
987
984
984
987
987
990
987
988
984
986
986
990
990
990
988
988
991
994
992
992
989
992
995
996
995
992
992
993
996
998
998
996
993
993
995
994
996
996
994
992
991
995
997
994
992
992
995
997
996
996
996
995
995
996
997
997
996
995
997
999
999
993
995
995
999
1000
998
995
993
995
1000
1001
1001
998
998
999
1000
1004
1004
999
994
998
1002
1002
1002
998
998
1000
999
1000
999
995
996
999
1003
1002
1001
1002
999
999
1003
1005
1005
1001
997
1000
1004
1007
1008
1004
1001
1002
1005
1009
1004
1002
998
1001
1005
1008
1006
1001
1001
999
1002
999
1001
1001
1000
999
1002
1004
1003
1001
999
1000
1003
1007
1008
1009
1007
1008
1010
1012
1016
1019
1018
1022
1027
1031
1031
1027
1026
1026
1027
1026
1024
1021
1015
1014
1013
1013
1009
1006
1003
1000
1003
1001
1000
996
998
996
1000
1003
1002
998
996
997
999
1001
998
1000
996
997
1001
999
996
996
1006
1029
1057
1094
1137
1192
1246
1291
1332
1359
1350
1299
1235
1164
1092
1039
1007
994
994
990
988
987
990
988
988
985
987
986
984
980
973
974
975
979
977
976
971
972
975
976
979
976
977
979
980
982
979
978
975
978
976
982
981
980
977
978
982
984
985
984
980
983
988
990
990
987
986
987
993
996
997
995
997
1000
1007
1008
1009
1008
1008
1011
1017
1019
1022
1022
1022
1024
1029
1033
1035
1031
1034
1033
1040
1043
1041
1042
1040
1044
1046
1051
1050
1048
1048
1048
1052
1054
1050
1045
1042
1038
1038
1036
1033
1028
1019
1017
1018
1016
1009
1004
995
994
994
994
995
987
984
983
987
987
987
983
980
978
978
979
980
980
977
979
982
983
981
977
976
977
980
981
982
978
977
979
981
983
980
977
975
978
982
982
982
978
976
978
982
983
980
979
978
980
981
984
982
979
978
980
983
982
984
984
986
989
991
994
995
993
1000
1007
1014
1022
1021
1025
1030
1040
1048
1057
1061
1067
1077
1091
1110
1122
1132
1139
1149
1159
1176
1191
1206
1219
1231
1241
1256
1273
1287
1294
1295
1293
1287
1275
1263
1249
1236
1230
1226
1220
1212
1199
1192
1186
1183
1180
1170
1166
1162
1161
1153
1144
1123
1096
1060
1023
991
961
938
917
905
897
896
895
892
884
877
875
875
874
872
867
862
864
864
864
860
858
854
856
856
854
854
849
843
843
845
844
841
837
835
829
831
832
828
824
823
822
823
821
820
814
811
811
813
814
810
804
805
806
810
811
812
812
813
814
818
821
824
827
833
840
847
851
855
861
864
870
878
885
891
894
900
909
917
921
921
921
921
925
930
933
934
932
929
929
932
933
933
931
931
931
930
933
935
934
931
931
935
933
929
925
923
925
928
928
923
919
918
918
919
921
921
924
926
932
940
948
954
956
952
953
958
962
965
966
967
971
977
976
974
970
969
972
978
983
983
982
978
976
979
983
987
988
993
995
999
1000
1004
1007
1008
1016
1026
1038
1050
1063
1080
1097
1115
1134
1149
1163
1179
1199
1219
1242
1256
1272
1287
1300
1307
1303
1299
1284
1268
1257
1255
1257
1256
1247
1237
1231
1225
1217
1209
1204
1200
1204
1204
1194
1170
1132
1087
1042
999
964
931
903
889
881
880
879
876
869
862
858
855
853
850
841
836
843
847
846
844
839
837
837
842
839
838
835
830
830
829
826
827
823
819
818
816
815
809
802
801
802
805
807
804
797
794
798
802
801
803
799
798
804
811
815
818
819
821
824
831
837
843
850
856
865
877
885
892
895
902
911
919
928
933
934
933
939
943
947
951
951
951
954
954
954
954
950
946
950
948
946
941
935
932
933
936
939
936
932
927
929
930
932
931
930
926
928
928
929
925
923
920
920
922
926
928
924
924
925
929
931
930
928
927
931
934
934
931
928
927
927
933
937
936
934
931
930
932
932
933
930
931
931
933
933
933
929
928
931
938
941
939
936
936
939
942
943
942
944
947
953
954
951
949
946
943
947
950
947
950
944
941
941
945
950
953
952
949
946
947
949
950
949
947
954
960
962
959
956
957
964
973
976
977
973
976
982
989
999
1002
999
997
998
1001
1001
1000
994
993
992
990
990
986
974
967
969
970
972
969
963
960
958
964
963
963
961
958
959
963
965
967
964
962
958
960
964
964
963
962
963
971
991
1015
1044
1079
1123
1184
1249
1303
1332
1312
1262
1197
1128
1056
998
970
971
980
983
982
979
986
987
987
980
975
970
963
965
965
965
968
964
957
959
968
976
980
986
986
980
976
977
978
974
967
963
972
983
974
948
933
935
951
960
960
957
958
962
964
958
953
951
957
969
976
984
986
986
986
987
994
1000
1004
1005
1004
1006
1009
1013
1016
1021
1025
1031
1031
1034
1030
1032
1037
1051
1063
1066
1055
1035
1025
1026
1031
1034
1032
1028
1024
1025
1023
1021
1014
1006
1002
995
995
997
997
1000
1005
1013
1018
1008
990
972
960
952
942
938
942
944
948
950
955
961
964
965
968
968
970
970
967
963
958
958
961
964
963
961
962
965
966
969
971
971
975
981
987
991
992
991
989
993
995
1005
1007
1008
999
998
1009
1019
1019
1005
989
992
997
988
968
946
941
951
959
958
952
949
950
952
956
956
955
949
944
943
948
951
949
947
950
961
966
972
983
995
1008
1023
1052
1100
1146
1195
1252
1323
1392
1445
1474
1462
1404
1321
1227
1131
1056
1015
994
983
972
961
951
945
944
949
958
963
973
983
991
977
938
900
886
901
915
923
921
924
927
929
921
917
918
927
931
937
937
935
927
923
922
921
918
918
917
920
927
931
936
941
940
938
939
936
934
936
945
952
950
943
932
928
931
934
942
948
955
960
963
963
960
959
965
970
974
978
981
985
984
980
981
986
995
1000
1000
1002
997
994
994
995
1004
1015
1028
1029
1028
1025
1023
1012
1000
1000
1001
996
982
967
943
922
898
894
917
948
960
951
944
964
1001
1022
1006
968
940
948
974
984
967
938
927
935
952
959
960
970
979
970
956
961
981
1004
1011
1000
978
969
993
1027
1040
1027
1016
1031
1068
1115
1154
1164
1158
1155
1165
1181
1199
1220
1262
1306
1339
1348
1353
1349
1354
1377
1418
1426
1387
1338
1323
1321
1323
1309
1300
1285
1265
1241
1222
1229
1238
1241
1236
1229
1216
1190
1147
1096
1053
1015
992
996
1012
1019
1019
1008
982
960
961
982
1000
1008
989
956
932
924
932
961
987
999
1003
1003
987
960
935
914
909
929
959
971
974
965
946
