981
981
981
981
981
981
981
981
982
984
986
985
984
984
989
992
992
993
989
992
992
990
993
990
987
991
989
992
995
991
985
977
973
972
974
972
970
976
995
1017
1043
1071
1087
1092
1100
1106
1120
1142
1166
1183
1187
1179
1166
1155
1140
1121
1098
1067
1028
995
971
961
955
954
946
943
931
922
926
935
946
949
955
965
978
988
992
992
984
976
972
969
969
970
968
970
971
971
972
969
967
967
967
968
967
968
964
966
966
966
968
967
964
966
968
972
971
971
968
968
970
972
971
970
968
967
970
974
974
973
972
974
976
977
979
979
976
978
982
986
986
983
981
981
985
985
989
989
988
989
991
991
997
997
996
997
998
1002
1006
1007
1004
1005
1008
1011
1011
1007
1009
1010
1013
1017
1017
1017
1017
1018
1020
1021
1024
1025
1023
1026
1031
1034
1034
1034
1033
1032
1031
1038
1038
1038
1037
1039
1038
1040
1044
1043
1041
1040
1043
1045
1049
1049
1049
1046
1050
1054
1053
1052
1047
1046
1049
1052
1053
1051
1050
1049
1049
1052
1052
1051
1050
1052
1053
1054
1052
1049
1047
1047
1050
1048
1047
1047
1044
1042
1044
1046
1045
1042
1039
1040
1041
1046
1045
1044
1041
1042
1045
1043
1043
1040
1038
1036
1038
1042
1042
1042
1041
1039
1041
1045
1047
1045
1046
1046
1048
1050
1053
1051
1049
1049
1051
1051
1054
1053
1053
1053
1056
1057
1059
1058
1057
1059
1057
1063
1063
1061
1061
1062
1064
1069
1068
1065
1061
1060
1061
1062
1062
1062
1064
1066
1079
1091
1102
1105
1105
1103
1108
1108
1105
1095
1081
1064
1046
1026
1010
984
958
931
908
884
866
850
838
829
827
831
838
850
864
883
903
925
935
935
930
919
910
898
882
864
847
836
833
829
829
829
827
824
826
827
826
823
825
823
823
825
826
822
820
819
819
820
823
819
818
818
821
821
823
821
820
818
821
828
826
826
824
823
825
827
822
822
825
824
827
831
832
831
829
832
836
840
842
842
836
835
841
845
845
843
847
849
855
860
862
862
860
862
864
864
866
864
866
869
874
876
879
880
879
880
884
884
884
884
881
882
889
891
894
894
893
895
898
902
904
903
903
904
910
914
916
912
914
916
919
924
924
923
924
925
930
933
934
934
933
933
937
941
943
944
941
944
942
945
950
948
947
947
949
951
955
957
955
956
960
963
963
964
963
965
968
971
973
972
968
969
970
975
974
969
969
972
974
978
978
977
975
976
980
983
984
983
980
978
981
986
984
985
981
980
980
984
984
983
981
982
982
987
987
986
986
985
989
992
990
989
989
984
988
989
989
989
986
984
989
989
990
988
987
986
987
991
995
991
991
989
990
992
991
990
985
986
985
991
989
988
986
989
990
994
993
991
992
992
994
996
997
995
992
988
992
992
992
993
992
990
992
996
996
994
993
993
996
998
999
995
995
994
995
998
997
995
992
991
994
996
996
997
996
991
995
999
1000
997
996
996
997
998
997
995
994
992
994
996
997
994
994
993
995
997
999
997
998
997
999
1003
1001
998
996
994
998
999
998
998
996
997
999
1000
1002
999
993
994
998
1003
1001
998
999
1000
1000
1003
1002
998
997
993
999
999
998
998
997
998
998
1004
1003
1004
1001
1002
1002
1004
1004
1001
1000
997
998
1003
1001
1000
998
997
1002
1004
1003
1002
1000
1001
1005
1006
1006
1003
1003
999
1003
1004
1002
1000
999
996
1002
1003
1004
1003
1000
1003
1002
1005
1004
1003
1002
1001
1004
1007
1006
1002
1001
1001
1000
1004
1003
1002
1001
1003
1004
1008
1008
1005
1005
1004
1007
1008
1007
1005
1002
1000
1000
1005
1006
1001
1001
1001
1004
1003
1005
1005
1004
1003
1006
1009
1008
1004
1004
1005
1005
1005
1003
1004
1000
1001
1005
1008
1008
1005
1000
1005
1003
1008
1007
1008
1005
1006
1007
1008
1010
1006
1003
1001
1005
1005
1007
1002
1002
1002
1005
1009
1010
1007
1005
1006
1008
1011
1012
1009
1006
1005
1004
1007
1007
1006
1007
1003
1007
1008
1008
1006
1006
1004
1008
1009
1010
1009
1007
1007
1010
1011
1010
1009
1008
1007
1010
1010
1013
1010
1011
1009
1010
1013
1013
1012
1005
998
998
1001
1003
1001
999
1007
1021
1043
1069
1087
1101
1107
1117
1127
1147
1174
1197
1204
1199
1188
1174
1159
1142
1115
1084
1047
1012
992
977
974
973
966
963
951
947
956
969
975
986
992
1004
1012
1014
1018
1011
1003
994
990
991
995
993
992
986
990
992
994
994
993
990
989
994
993
995
993
990
992
991
994
993
991
988
990
990
993
993
991
991
988
992
997
997
996
991
995
999
1001
1000
999
996
999
1001
1005
1003
1002
1001
1001
1004
1008
1008
1007
1009
1009
1011
1017
1017
1012
1011
1015
1018
1021
1020
1018
1016
1016
1020
1022
1026
1021
1024
1025
1026
1032
1032
1033
1032
1037
1041
1044
1042
1041
1039
1038
1042
1041
1043
1044
1045
1047
1049
1051
1053
1052
1048
1049
1054
1059
1059
1056
1055
1054
1058
1060
1060
1059
1055
1056
1060
1063
1063
1062
1059
1061
1064
1066
1063
1062
1063
1061
1064
1064
1062
1059
1058
1057
1059
1060
1059
1057
1055
1056
1055
1057
1056
1055
1050
1057
1056
1058
1053
1051
1050
1051
1053
1051
1050
1050
1051
1051
1054
1052
1049
1050
1052
1055
1057
1058
1057
1054
1057
1057
1059
1058
1054
1057
1056
1059
1063
1065
1063
1062
1065
1066
1069
1070
1070
1068
1072
1075
1079
1078
1075
1071
1068
1072
1070
1066
1056
1054
1056
1056
1061
1059
1053
1050
1050
1052
1055
1054
1044
1031
1009
985
962
941
924
899
867
835
824
813
808
802
795
795
806
823
834
840
845
850
858
863
863
858
855
856
856
856
852
847
847
850
856
857
855
852
851
853
853
854
851
847
846
849
853
853
851
848
848
849
854
852
851
851
848
852
858
857
855
852
854
858
862
862
858
860
861
864
869
870
870
870
873
875
880
878
878
880
880
886
887
892
888
889
891
896
901
900
900
899
900
905
908
909
911
910
915
919
924
923
927
929
929
933
937
935
933
937
939
942
947
948
950
951
952
957
962
960
959
957
960
962
962
968
966
967
968
973
977
976
973
972
976
980
985
983
981
980
981
980
982
982
979
979
980
983
983
982
982
979
977
983
984
986
984
981
982
985
985
984
982
980
981
981
982
984
980
979
978
982
984
984
983
982
984
984
986
986
983
982
980
984
985
984
983
980
981
983
983
984
983
982
983
986
989
988
987
984
985
986
987
984
983
981
980
986
987
989
988
987
985
989
991
991
989
986
987
990
990
988
987
985
985
987
990
990
989
987
987
990
992
988
989
990
989
990
995
994
990
988
989
988
988
991
986
988
985
988
992
989
987
987
988
992
993
990
991
989
990
989
991
991
989
986
989
990
990
989
988
987
987
991
993
992
993
992
992
994
992
993
990
989
987
990
989
989
987
987
989
990
992
990
990
989
987
991
993
988
989
987
988
988
989
990
988
984
985
990
992
991
987
989
992
992
993
994
992
990
991
993
992
993
991
988
987
991
991
993
990
989
991
992
994
995
993
991
991
994
994
991
988
987
988
992
993
994
990
988
989
992
995
993
994
990
992
993
992
993
993
990
989
991
993
991
991
987
986
990
991
991
989
987
986
990
994
996
992
989
991
990
993
991
988
987
987
989
991
991
991
988
989
990
993
994
992
991
992
993
993
993
991
988
987
989
995
993
991
988
989
992
994
992
990
992
993
997
992
993
992
990
990
992
990
991
989
988
987
989
992
993
989
990
990
993
995
993
993
992
994
995
996
994
990
988
988
991
995
993
988
990
991
991
995
992
987
990
993
995
998
997
994
992
993
996
995
995
994
992
993
995
996
993
993
991
994
995
996
994
991
989
991
997
997
995
992
992
993
996
998
997
995
994
993
995
999
1000
998
997
998
1001
1002
999
991
985
979
976
978
976
980
991
1013
1040
1066
1084
1090
1095
1106
1132
1162
1179
1179
1168
1157
1147
1132
1107
1073
1032
1000
980
972
967
957
952
945
939
941
947
952
957
964
975
988
996
997
999
996
988
983
978
974
975
976
978
982
980
978
978
978
980
982
980
979
977
978
979
978
977
975
974
975
980
981
980
979
974
978
983
985
985
982
980
982
986
985
984
981
984
986
987
989
988
984
985
988
992
994
994
994
993
996
999
1000
998
996
995
998
1001
1003
1000
998
1000
1004
1008
1009
1010
1010
1009
1011
1016
1018
1019
1017
1015
1015
1017
1022
1022
1019
1019
1020
1025
1026
1028
1027
1025
1029
1031
1033
1036
1032
1032
1034
1037
1038
1037
1037
1034
1036
1039
1043
1042
1039
1039
1044
1046
1046
1046
1045
1044
1045
1044
1046
1047
1044
1043
1043
1044
1043
1043
1042
1039
1041
1044
1044
1040
1039
1039
1041
1042
1038
1038
1036
1035
1035
1037
1036
1034
1034
1030
1033
1032
1033
1032
1033
1032
1036
1038
1038
1035
1034
1033
1032
1035
1037
1034
1035
1034
1038
1041
1042
1042
1042
1044
1045
1049
1050
1051
1052
1050
1051
1052
1055
1058
1057
1055
1055
1053
1051
1050
1046
1046
1052
1056
1061
1066
1063
1067
1068
1069
1065
1054
1040
1024
1009
987
968
945
920
894
880
860
840
825
817
815
824
834
849
870
885
900
913
924
927
918
905
892
882
874
864
857
852
847
848
851
850
845
845
843
843
845
844
843
841
842
842
845
844
843
841
841
842
842
844
845
842
841
842
845
847
844
844
842
847
849
851
850
846
848
852
856
859
855
858
857
861
862
863
864
862
860
863
867
867
866
863
865
869
875
880
880
881
881
883
889
889
893
887
889
891
895
897
895
895
898
899
903
903
905
900
902
904
910
913
913
910
910
914
920
922
922
922
921
923
927
930
931
927
930
934
938
941
940
940
940
944
947
949
951
949
950
951
954
953
952
947
950
952
956
960
958
957
956
958
963
965
963
964
964
964
969
971
970
967
967
970
972
974
974
973
971
972
975
976
978
975
976
976
980
980
980
978
979
980
978
980
978
975
975
978
981
981
982
979
978
980
981
985
984
982
981
983
981
984
983
980
980
981
983
982
982
981
979
979
983
988
987
984
986
984
989
992
987
985
983
984
983
985
985
984
982
983
987
987
985
986
983
986
989
991
989
987
987
984
987
989
987
983
982
985
988
986
986
983
984
987
988
990
989
986
985
988
989
990
989
986
984
985
988
987
989
985
985
987
989
989
988
988
987
989
990
991
990
987
987
988
991
989
988
984
984
987
989
990
989
986
984
990
993
995
992
990
989
989
989
992
990
988
986
990
987
991
991
989
987
991
994
994
993
992
989
991
994
991
990
989
988
989
993
991
989
990
986
987
990
992
991
989
989
994
994
994
993
991
988
988
991
990
991
989
987
989
991
991
987
987
989
993
995
992
990
992
990
990
993
993
992
991
987
988
991
990
987
989
989
989
990
991
990
990
989
994
994
994
991
989
985
991
991
993
991
987
989
991
993
993
992
992
989
992
994
995
995
993
993
993
994
995
990
989
987
989
992
994
990
989
990
992
994
995
994
991
991
991
995
996
993
990
989
993
993
993
992
992
991
992
995
994
993
988
991
994
996
995
995
994
991
990
995
996
995
990
992
993
994
996
990
988
989
990
994
995
990
989
990
995
997
997
996
994
991
990
991
994
991
990
989
991
994
995
993
991
990
993
996
997
994
994
993
996
997
997
994
991
989
991
995
994
990
990
992
996
998
1001
1000
999
997
1001
1005
1004
999
997
998
997
996
995
987
979
978
977
980
985
991
1008
1031
1056
1076
1088
1096
1100
1115
1144
1168
1178
1171
1156
1144
1133
1118
1094
1055
1015
987
975
972
966
963
952
943
941
947
954
960
962
970
981
995
1000
1000
995
986
983
980
979
977
976
979
979
982
983
983
980
981
982
982
981
979
975
977
980
981
980
980
979
980
983
982
986
984
982
984
985
989
986
985
983
983
986
989
991
989
987
986
991
994
995
994
994
993
995
999
999
997
995
998
995
1001
1002
1000
997
1000
1002
1005
1005
1005
1003
1004
1009
1012
1013
1009
1010
1014
1015
1018
1016
1016
1012
1014
1017
1021
1020
1019
1021
1017
1023
1026
1028
1023
1026
1024
1027
1032
1033
1033
1032
1034
1035
1037
1035
1036
1034
1032
1036
1039
1039
1039
1039
1037
1042
1044
1044
1046
1041
1041
1045
1048
1049
1046
1043
1044
1043
1044
1044
1043
1041
1040
1042
1041
1042
1040
1040
1040
1038
1045
1044
1042
1038
1039
1039
1041
1042
1038
1033
1031
1035
1038
1038
1034
1030
1031
1033
1036
1036
1036
1030
1034
1036
1039
1039
1038
1036
1037
1037
1037
1040
1037
1037
1037
1038
1037
1041
1040
1038
1040
1042
1045
1046
1046
1043
1045
1050
1050
1053
1053
1050
1050
1055
1055
1061
1060
1058
1059
1061
1064
1061
1057
1053
1055
1057
1062
1062
1059
1057
1058
1059
1061
1057
1051
1048
1040
1034
1025
1014
999
975
952
927
911
901
882
850
822
806
803
804
805
800
802
812
829
846
858
866
874
883
882
880
875
869
866
861
863
860
854
849
845
846
845
848
845
845
843
844
847
846
842
842
842
844
848
846
844
842
842
843
846
845
847
844
845
847
851
851
851
850
850
852
854
856
856
856
855
859
862
866
866
863
863
866
870
871
871
870
870
873
879
880
881
877
879
883
885
890
893
893
893
896
897
899
900
897
897
901
904
907
908
907
907
914
917
917
919
919
921
923
928
930
930
930
931
934
938
941
940
942
943
947
954
958
957
954
956
958
964
963
965
967
969
973
973
975
972
969
969
971
973
973
974
975
973
975
982
979
976
975
975
977
977
978
980
976
974
974
977
978
976
976
976
978
980
980
980
978
978
976
983
985
981
979
979
981
983
982
978
977
976
982
982
984
979
979
979
982
985
987
985
982
982
983
985
985
984
982
981
982
981
986
984
983
981
983
985
985
983
984
984
985
986
988
985
986
983
982
985
986
985
982
982
986
986
988
986
984
985
986
991
993
989
985
983
987
986
986
986
982
982
986
987
989
986
984
984
985
989
990
988
988
986
989
990
991
986
987
985
987
990
991
989
986
984
986
990
991
989
990
988
988
993
992
990
986
988
989
990
992
989
989
984
988
992
989
989
986
986
989
993
994
990
989
986
989
988
989
987
985
984
985
989
986
986
983
984
988
990
989
989
987
983
986
990
991
989
987
984
988
989
989
987
985
986
987
988
987
986
985
985
986
990
989
990
987
984
990
990
992
985
987
986
987
989
990
987
988
987
988
990
993
990
988
988
991
989
991
991
988
987
986
989
989
987
988
986
989
988
988
990
987
988
990
993
993
991
991
990
991
993
993
989
986
987
989
990
990
989
988
989
990
992
991
990
989
990
992
993
991
988
986
986
987
988
990
990
985
986
990
990
991
988
985
988
990
993
992
990
990
988
992
992
989
989
986
986
986
989
989
987
987
988
990
991
991
990
990
991
991
993
995
992
985
986
989
992
991
990
989
989
990
993
991
990
991
988
992
995
995
992
991
987
988
989
991
993
987
987
989
993
992
987
985
987
991
993
994
992
987
990
993
993
990
989
988
988
990
992
992
991
989
984
992
993
994
993
992
994
998
999
1000
998
997
996
998
1003
1003
998
991
985
984
988
992
990
997
1013
1039
1064
1084
1092
1094
1099
1116
1142
1167
1174
1169
1156
1146
1137
1120
1090
1053
1014
989
980
976
971
963
957
951
948
948
950
956
962
972
985
993
997
993
987
984
979
977
975
973
975
977
979
979
975
972
972
974
975
977
974
971
971
972
977
976
973
975
975
979
981
980
979
977
974
974
977
980
978
975
976
979
983
981
979
980
981
984
985
988
988
987
988
989
992
992
990
987
989
992
995
995
993
993
992
997
1001
1001
998
998
997
1000
1006
1007
1003
1005
1004
1010
1012
1010
1010
1007
1007
1013
1017
1016
1015
1014
1016
1018
1022
1022
1024
1022
1020
1023
1028
1028
1025
1025
1024
1026
1031
1032
1031
1031
1030
1034
1035
1037
1036
1034
1037
1039
1044
1039
1041
1041
1040
1042
1044
1043
1040
1039
1038
1042
1045
1043
1039
1040
1038
1042
1046
1044
1042
1040
1039
1040
1042
1039
1036
1034
1034
1035
1036
1038
1036
1034
1035
1036
1036
1039
1036
1036
1035
1036
1042
1042
1038
1031
1035
1038
1041
1042
1039
1036
1039
1041
1045
1045
1044
1042
1044
1045
1050
1050
1050
1048
1048
1053
1055
1056
1053
1054
1055
1058
1062
1063
1063
1061
1062
1068
1069
1073
1067
1065
1064
1062
1061
1059
1054
1053
1051
1055
1056
1054
1050
1041
1034
1028
1025
1016
1008
1001
994
982
962
937
913
899
889
872
848
829
818
814
816
819
825
836
850
865
874
878
880
880
879
875
871
865
863
858
853
852
851
850
853
854
851
849
850
851
853
853
851
851
849
852
854
854
849
846
847
849
854
855
848
849
852
854
856
860
858
858
860
863
864
864
865
863
862
863
867
870
868
866
869
873
879
881
877
878
881
884
888
891
892
890
891
895
900
900
901
900
903
904
910
909
911
911
913
916
920
922
924
924
927
929
933
933
934
932
932
937
941
942
943
944
946
950
954
956
956
958
960
965
970
972
969
968
970
972
975
979
979
979
981
983
988
987
985
984
987
989
994
992
993
991
991
994
996
998
994
992
989
991
995
994
991
990
994
995
1001
1001
996
994
996
997
998
997
992
992
993
998
997
996
996
995
994
997
1000
999
997
997
998
1000
1002
1002
1000
996
995
996
997
1000
996
993
995
995
1003
1001
998
997
998
1002
1003
1002
1000
998
999
998
1000
998
999
996
998
996
1001
1002
999
995
998
1001
1004
1004
1002
1001
1000
1002
1004
1000
1000
998
999
1002
1004
1005
1002
997
998
1001
1002
1004
1002
1002
1003
1004
1008
1007
1003
1000
997
1003
1004
1001
1004
999
1000
1003
1005
1005
1003
1002
1004
1006
1009
1008
1005
1003
1003
1005
1007
1005
1004
1000
1001
1005
1005
1003
1002
999
1001
1005
1009
1009
1004
1005
1005
1007
1009
1006
1003
1002
1002
1005
1007
1006
1003
1001
1002
1007
1004
1005
1007
1005
1006
1009
1010
1009
1005
1004
1005
1005
1006
1006
1004
1002
1003
1004
1008
1006
1007
1004
1005
1008
1009
1008
1007
1004
1006
1006
1008
1007
1004
1003
1002
1005
1006
1005
1002
1001
1000
1002
1006
1008
1005
1003
1003
1005
1006
1004
1003
1000
999
1004
1005
1000
1002
1000
1001
1002
1005
1004
1002
1002
1002
1005
1007
1005
1003
1002
1000
1002
1006
1006
1002
1001
1003
1001
1005
1004
1001
1001
1002
1006
1006
1006
1003
1002
1001
1005
1004
1004
1002
1002
1001
1001
1003
1005
1003
1003
1003
1005
1007
1007
1004
1002
1003
1003
1004
1005
999
998
1000
999
1002
1003
1001
999
1001
1001
1005
1005
1003
999
1002
1002
1004
1002
1000
999
997
1000
1006
1003
1001
999
1000
1004
1004
1004
1002
1001
1001
1005
1006
1003
999
998
999
1005
1004
1003
1000
1000
1002
1004
1003
1001
1002
1002
1003
1007
1008
1005
1002
1001
1003
1003
1004
1003
1002
999
1001
1004
1005
1004
1002
998
1002
1004
1008
1006
1004
1002
1001
1004
1005
1004
1004
1001
1000
1002
1006
1004
1001
1000
1003
1005
1005
999
994
992
994
996
1003
1014
1034
1058
1081
1097
1102
1109
1128
1156
1177
1181
1174
1156
1141
1116
1084
1042
1008
993
984
979
970
962
966
978
984
993
1005
1013
1015
1009
998
989
985
985
988
990
986
986
985
989
991
989
989
987
990
990
992
991
988
989
989
987
992
990
990
988
988
990
992
992
990
988
991
994
995
995
994
992
991
994
995
995
995
994
994
1000
1000
1000
998
997
1000
1004
1007
1007
1006
1006
1008
1007
1012
1010
1006
1006
1008
1012
1014
1015
1013
1013
1014
1019
1019
1020
1023
1019
1020
1025
1028
1028
1023
1021
1025
1027
1030
1029
1027
1026
1029
1032
1033
1036
1036
1033
1036
1037
1040
1040
1038
1036
1037
1040
1041
1043
1039
1038
1042
1041
1045
1044
1042
1043
1043
1044
1048
1047
1044
1045
1044
1045
1047
1045
1042
1041
1042
1045
1045
1046
1042
1040
1041
1043
1044
1046
1044
1042
1041
1041
1044
1041
1039
1038
1038
1042
1042
1040
1037
1039
1040
1043
1045
1045
1044
1044
1046
1048
1049
1047
1046
1046
1045
1048
1051
1052
1051
1048
1050
1055
1057
1057
1058
1057
1058
1065
1065
1064
1062
1063
1068
1072
1072
1071
1073
1071
1072
1068
1066
1061
1056
1055
1056
1052
1055
1051
1047
1045
1044
1043
1037
1031
1027
1024
1020
1017
1003
979
960
947
933
915
893
870
851
839
828
825
822
826
826
834
848
861
870
873
877
877
877
876
877
872
867
863
862
864
863
861
858
860
863
865
863
862
859
858
857
858
862
861
860
858
861
862
862
862
860
856
860
864
864
865
864
860
861
865
869
868
866
865
868
874
873
876
875
875
880
882
885
886
887
883
887
887
890
890
887
891
892
896
896
899
901
900
901
903
908
909
908
907
912
916
921
923
917
919
919
922
925
927
926
927
930
931
937
937
939
937
941
944
948
949
950
949
953
958
959
959
958
959
963
965
970
968
967
969
972
975
976
977
976
978
980
988
987
992
993
993
994
997
997
995
992
991
994
997
999
998
999
997
998
1000
1004
1001
1000
998
1000
1001
1002
999
996
996
997
999
999
1002
998
998
996
999
1001
999
998
999
999
1003
1003
1003
1002
998
998
1002
1003
1001
999
998
998
1002
1002
1001
999
998
1000
1000
1002
1002
1001
1001
1002
1003
1003
1003
1001
1000
1000
1001
1002
1001
998
997
1002
1001
1002
999
1000
1000
1001
1003
1005
1002
1004
1004
1004
1007
1005
1006
1003
1000
1001
1005
1002
1004
1004
1001
1002
1004
1005
1004
1006
1004
1006
1006
1010
1009
1006
1003
1006
1006
1007
1006
1002
1003
1004
1005
1005
1009
1006
1005
1005
1006
1009
1008
1008
1007
1007
1009
1010
1009
1007
1005
1005
1008
1008
1007
1007
1005
1005
1007
1009
1008
1006
1006
1005
1009
1010
1009
1007
1007
1007
1010
1010
1006
1004
1005
1008
1009
1007
1006
1006
1006
1007
1010
1010
1009
1006
1006
1009
1011
1011
1010
1006
1004
1008
1009
1010
1008
1005
1005
1006
1005
1007
1008
1006
1003
1006
1008
1009
1008
1009
1007
1007
1010
1010
1010
1008
1005
1006
1007
1008
1008
1004
1003
1007
1008
1009
1008
1001
1004
1007
1010
1011
1010
1007
1007
1008
1011
1010
1010
1005
1006
1008
1008
1010
1008
1005
1006
1006
1008
1008
1008
1007
1005
1003
1011
1012
1010
1007
1007
1009
1009
1011
1005
1005
1004
1005
1010
1010
1007
1008
1005
1006
1011
1011
1010
1009
1006
1009
1011
1010
1009
1005
1003
1006
1007
1008
1007
1005
1005
1007
1007
1008
1004
1005
1005
1006
1008
1009
1010
1005
1004
1006
1008
1007
1006
1006
1005
1006
1008
1005
1007
1005
1005
1006
1009
1011
1009
1006
1007
1009
1010
1010
1010
1007
1006
1004
1008
1008
1006
1002
1005
1007
1009
1012
1011
1008
1008
1009
1012
1014
1012
1006
1007
1008
1010
1011
1009
1007
1007
1008
1010
1012
1008
1006
1007
1009
1009
1011
1011
1012
1007
1010
1012
1011
1008
1007
1006
1009
1009
1010
1008
1004
1005
1008
1010
1009
1008
1009
1009
1011
1010
1012
1011
1009
1007
1007
1012
1010
1007
1008
1007
1008
1011
1011
1012
1008
1006
1009
1012
1013
1013
1010
1010
1012
1017
1015
1013
1009
1006
1010
1014
1013
1013
1009
1010
1009
1005
1004
1002
1001
1004
1009
1022
1038
1056
1075
1090
1103
1109
1113
1132
1158
1178
1188
1185
1173
1160
1146
1134
1117
1093
1059
1028
1012
1003
997
994
990
984
974
969
974
983
992
997
1002
1009
1018
1024
1023
1014
1009
1002
1002
1000
999
998
998
990
994
998
996
997
992
994
995
996
997
996
994
993
995
996
997
998
995
997
998
999
999
999
994
993
997
997
999
998
995
994
999
1001
1003
1003
997
998
1003
1005
1006
1006
1005
1005
1004
1008
1007
1008
1007
1005
1009
1012
1010
1011
1009
1011
1012
1019
1017
1018
1016
1019
1021
1021
1021
1021
1021
1022
1023
1026
1027
1028
1025
1024
1028
1028
1033
1032
1034
1033
1035
1038
1037
1037
1035
1035
1037
1038
1040
1036
1041
1037
1042
1044
1045
1045
1041
1043
1046
1049
1051
1051
1051
1050
1051
1051
1050
1048
1048
1047
1051
1053
1053
1051
1051
1050
1050
1052
1054
1052
1048
1051
1052
1055
1052
1052
1050
1049
1048
1049
1050
1048
1044
1041
1043
1043
1047
1044
1044
1045
1046
1050
1051
1049
1046
1042
1044
1048
1048
1045
1045
1045
1046
1048
1048
1048
1043
1045
1049
1054
1053
1052
1053
1051
1057
1058
1061
1060
1061
1060
1062
1063
1059
1061
1062
1064
1064
1067
1067
1068
1067
1067
1072
1074
1076
1077
1075
1074
1073
1072
1069
1064
1058
1057
1055
1054
1052
1050
1045
1044
1040
1036
1034
1032
1028
1029
1028
1021
1004
982
967
949
935
923
900
878
858
842
832
830
829
834
839
845
860
872
882
884
884
884
886
882
879
871
864
862
863
862
860
859
856
856
858
862
863
861
860
860
861
858
859
858
856
854
856
860
860
860
859
859
861
863
864
864
863
865
865
868
870
867
865
864
868
869
872
872
872
870
876
879
880
881
881
880
886
890
890
891
890
889
893
896
899
901
897
899
903
907
908
910
908
910
913
916
919
920
920
921
925
929
931
931
927
928
933
937
938
939
940
940
944
951
951
954
954
954
958
962
965
965
963
966
968
970
970
967
967
971
973
978
980
983
984
987
988
993
994
992
989
987
988
992
993
994
992
989
995
997
997
995
993
992
994
997
999
997
997
994
997
999
998
995
992
991
995
996
998
995
994
995
997
1000
1001
1001
998
999
1001
1001
1001
997
992
993
992
996
999
996
995
994
998
999
1000
997
997
997
1000
1001
1004
999
999
997
1001
1002
1000
1001
995
996
1001
1003
1001
1000
999
999
1001
1002
1001
1000
1003
1000
1001
1004
1004
1000
999
998
1000
999
1005
1004
1002
1000
1003
1006
1006
1004
1004
1002
1006
1008
1007
1005
1002
1002
1004
1006
1006
1003
1005
1003
1004
1005
1007
1004
1005
1002
1006
1008
1009
1004
1004
1000
1004
1008
1007
1005
1003
1001
1004
1008
1008
1007
1005
1005
1006
1009
1008
1003
1006
1006
1009
1013
1013
1010
1009
1006
1008
1010
1007
1009
1005
1004
1005
1007
1010
1007
1006
1003
1006
1009
1011
1009
1008
1008
1008
1011
1009
1008
1005
1007
1008
1009
1010
1006
1008
1007
1008
1012
1010
1008
1007
1008
1008
1013
1013
1010
1008
1004
1008
1010
1009
1006
1005
1002
1005
1010
1011
1007
1006
1004
1009
1011
1011
1009
1009
1008
1007
1010
1010
1007
1004
1005
1006
1008
1008
1007
1006
1003
1006
1007
1009
1006
1006
1004
1007
1012
1011
1006
1007
1004
1007
1012
1010
1008
1006
1005
1009
1010
1010
1010
1007
1009
1010
1010
1013
1009
1009
1004
1007
1010
1008
1006
1006
1007
1007
1010
1009
1004
1007
1006
1009
1010
1011
1012
1011
1008
1012
1012
1010
1008
1007
1002
1008
1011
1008
1006
1008
1005
1006
1011
1011
1011
1010
1009
1012
1013
1012
1009
1009
1006
1009
1011
1012
1009
1007
1006
1009
1012
1011
1008
1010
1010
1012
1016
1014
1011
1010
1009
1011
1011
1012
1012
1006
1008
1010
1013
1014
1011
1011
1010
1011
1015
1015
1014
1014
1013
1014
1016
1013
1013
1009
1009
1010
1009
1010
1009
1009
1009
1010
1013
1013
1012
1007
1009
1012
1014
1014
1011
1009
1008
1007
1011
1012
1008
1006
1006
1011
1014
1012
1011
1011
1009
1011
1013
1015
1014
1013
1008
1010
1016
1013
1010
1008
1002
1001
1005
1007
1006
1006
1014
1037
1060
1081
1094
1101
1106
1119
1143
1173
1185
1184
1175
1165
1156
1143
1121
1094
1059
1029
1012
1004
996
992
986
981
977
974
977
981
985
996
1006
1015
1020
1019
1015
1011
1005
1002
998
993
992
1000
1002
1004
1000
998
995
998
1001
999
995
995
996
997
999
999
997
992
992
997
998
1000
999
999
995
999
1001
1000
1000
996
995
997
1000
1002
1002
998
996
1001
1005
1006
1004
1002
1002
1006
1009
1009
1006
1008
1007
1008
1011
1013
1012
1009
1009
1011
1016
1018
1013
1016
1015
1016
1021
1021
1022
1020
1020
1021
1025
1028
1024
1023
1022
1026
1029
1030
1028
1027
1030
1034
1036
1037
1034
1035
1036
1039
1044
1041
1042
1040
1039
1041
1044
1043
1043
1043
1041
1044
1047
1048
1043
1041
1044
1048
1052
1051
1051
1047
1045
1051
1049
1050
1048
1044
1046
1048
1049
1048
1046
1043
1044
1048
1048
1049
1048
1046
1046
1046
1049
1047
1044
1041
1039
1043
1047
1044
1043
1043
1042
1046
1048
1047
1046
1045
1045
1047
1049
1050
1048
1044
1044
1049
1050
1051
1051
1052
1051
1056
1058
1058
1059
1057
1057
1061
1064
1063
1065
1062
1064
1068
1070
1069
1067
1068
1068
1072
1076
1075
1076
1073
1069
1069
1068
1065
1061
1053
1052
1050
1052
1049
1040
1035
1031
1036
1039
1036
1032
1022
1006
990
977
961
945
923
899
881
867
855
849
851
853
858
866
875
884
890
896
901
902
896
889
883
875
874
872
869
864
857
858
859
860
860
859
858
858
859
863
861
859
859
858
862
865
866
861
861
861
862
864
865
864
862
864
866
869
869
869
869
869
873
878
880
878
873
872
879
881
882
882
881
879
886
888
891
892
888
890
894
897
898
898
899
899
904
909
910
904
907
908
911
915
916
917
916
921
921
928
927
926
928
932
935
941
941
938
939
940
944
948
948
949
949
949
954
959
962
961
960
961
964
968
969
966
966
971
976
981
980
980
981
981
985
987
989
986
983
983
987
992
992
995
992
991
995
997
998
993
989
990
992
995
994
993
991
993
995
999
996
994
992
994
996
1001
1002
999
998
999
1000
1000
999
999
996
998
1000
1001
1001
998
998
998
1000
1001
1006
1002
1003
1002
1006
1007
1007
1003
1001
999
1002
1006
1004
1000
997
1000
1002
1004
1002
1003
1001
1002
1004
1007
1007
1004
1000
1000
1004
1008
1003
1002
1000
1002
1004
1006
1005
1003
1003
1003
1005
1009
1008
1007
1006
1006
1007
1007
1007
1007
1005
1003
1005
1011
1008
1007
1006
1003
1006
1008
1009
1008
1005
1008
1010
1013
1010
1009
1007
1004
1004
1009
1007
1007
1004
1004
1008
1010
1009
1008
1005
1005
1008
1011
1010
1008
1006
1006
1009
1011
1009
1006
1006
1007
1009
1010
1010
1008
1006
1008
1009
1012
1011
1010
1008
1009
1009
1012
1010
1008
1006
1006
1010
1012
1012
1010
1008
1007
1009
1013
1013
1010
1005
1007
1010
1012
1010
1006
1006
1006
1008
1012
1010
1007
1003
1004
1006
1008
1009
1009
1006
1008
1010
1013
1009
1009
1006
1007
1007
1009
1007
1005
1004
1003
1009
1010
1009
1006
1005
1007
1008
1014
1010
1009
1005
1006
1007
1010
1009
1009
1006
1009
1009
1010
1011
1010
1005
1009
1010
1014
1013
1010
1009
1010
1013
1016
1012
1011
1004
1006
1010
1011
1011
1009
1005
1006
1007
1008
1010
1010
1008
1006
1011
1013
1011
1008
1003
1004
1008
1010
1009
1006
1005
1005
1007
1010
1011
1010
1008
1009
1011
1012
1013
1009
1008
1008
1009
1012
1010
1010
1008
1008
1010
1010
1011
1010
1009
1011
1012
1013
1015
1010
1007
1007
1010
1012
1010
1009
1006
1005
1008
1010
1013
1009
1008
1009
1013
1015
1015
1011
1011
1009
1013
1012
1007
1008
1007
1008
1012
1014
1009
1010
1009
1009
1010
1011
1012
1010
1009
1010
1012
1013
1013
1010
1008
1009
1011
1011
1011
1010
1007
1008
1012
1011
1012
1009
1009
1011
1014
1013
1014
1009
1009
1010
1012
1011
1010
1010
1008
1007
1011
1013
1015
1014
1013
1015
1016
1021
1017
1013
1010
1004
1002
1001
1002
1000
1000
1012
1029
1050
1072
1087
1095
1103
1111
1122
1142
1165
1183
1187
1182
1175
1163
1151
1131
1109
1076
1041
1011
995
988
986
986
984
976
969
971
978
984
995
999
1010
1016
1020
1019
1014
1005
999
992
993
994
997
997
993
994
996
999
996
996
995
996
997
1000
1002
1001
998
992
996
998
1000
997
998
996
996
999
999
1000
997
998
1001
1003
1005
1004
1000
1001
1002
1005
1005
1004
1001
1003
1004
1007
1005
1007
1005
1006
1007
1011
1013
1014
1012
1013
1012
1018
1017
1018
1018
1015
1017
1018
1022
1022
1020
1020
1022
1025
1026
1029
1027
1028
1027
1029
1032
1031
1029
1027
1032
1031
1035
1037
1033
1035
1035
1037
1038
1042
1041
1039
1041
1044
1048
1045
1044
1044
1046
1048
1049
1046
1044
1045
1043
1045
1050
1051
1048
1049
1050
1050
1051
1052
1051
1053
1052
1054
1057
1055
1051
1049
1050
1051
1052
1052
1048
1047
1048
1049
1051
1050
1049
1047
1047
1047
1049
1049
1046
1044
1046
1046
1045
1045
1044
1043
1044
1044
1049
1048
1045
1044
1045
1048
1052
1052
1049
1049
1051
1050
1052
1050
1048
1050
1051
1053
1055
1058
1056
1056
1058
1061
1065
1064
1064
1063
1065
1068
1071
1071
1068
1065
1067
1072
1074
1076
1074
1076
1075
1079
1079
1076
1072
1066
1066
1063
1062
1062
1064
1066
1065
1061
1057
1051
1054
1052
1049
1044
1038
1024
1006
989
975
959
946
923
896
878
866
865
861
858
856
855
859
867
878
888
895
901
905
905
901
894
884
880
873
870
865
861
856
857
858
860
862
860
856
854
855
857
858
857
854
853
855
857
860
858
856
855
856
861
861
859
858
859
861
863
863
863
860
860
863
865
868
868
865
867
870
870
873
872
869
872
877
881
882
882
879
879
882
886
886
890
888
892
895
901
903
905
901
902
907
912
915
914
914
911
917
918
921
922
923
921
922
922
923
924
926
926
931
935
937
941
939
940
939
944
944
943
942
944
947
949
950
950
948
947
953
958
961
962
961
962
964
964
968
969
970
969
970
975
978
978
975
975
975
977
980
981
981
979
983
987
988
990
986
984
988
990
991
993
993
990
993
994
997
995
995
994
996
999
998
999
999
995
999
1002
1006
1003
1001
1000
1003
1003
1004
1002
1004
1001
1001
1005
1004
1003
1002
1004
1005
1006
1009
1008
1005
1005
1007
1009
1010
1010
1007
1007
1004
1005
1006
1008
1004
1004
1006
1008
1009
1009
1009
1007
1006
1008
1010
1012
1008
1006
1008
1010
1011
1010
1010
1006
1007
1008
1009
1008
1007
1007
1008
1011
1012
1011
1011
1009
1012
1013
1013
1013
1012
1008
1011
1012
1012
1008
1009
1007
1010
1011
1011
1010
1009
1010
1012
1013
1013
1014
1010
1009
1010
1013
1012
1012
1010
1008
1007
1012
1012
1010
1009
1007
1009
1013
1014
1013
1012
1009
1011
1012
1013
1012
1012
1011
1011
1013
1013
1009
1010
1009
1007
1011
1013
1014
1013
1011
1014
1016
1016
1016
1014
1012
1014
1015
1017
1015
1014
1012
1010
1013
1013
1010
1012
1010
1011
1015
1017
1014
1013
1013
1010
1013
1015
1013
1013
1009
1013
1012
1013
1011
1010
1008
1009
1012
1014
1013
1011
1008
1011
1014
1015
1014
1011
1009
1013
1016
1016
1015
1012
1008
1013
1011
1013
1011
1011
1011
1011
1012
1016
1015
1014
1013
1013
1017
1018
1015
1012
1009
1014
1015
1016
1013
1011
1011
1013
1016
1017
1016
1015
1012
1014
1017
1018
1017
1015
1015
1015
1019
1018
1017
1013
1011
1012
1016
1017
1016
1012
1011
1016
1018
1019
1017
1016
1012
1015
1018
1017
1017
1015
1016
1016
1016
1019
1013
1014
1013
1014
1016
1017
1016
1013
1014
1016
1020
1020
1016
1017
1014
1016
1019
1020
1017
1013
1014
1015
1015
1017
1016
1015
1012
1017
1020
1020
1020
1017
1016
1020
1019
1021
1017
1019
1016
1018
1019
1018
1019
1015
1015
1015
1017
1019
1018
1019
1018
1019
1021
1023
1019
1016
1015
1016
1017
1020
1018
1015
1013
1013
1017
1019
1019
1018
1014
1016
1016
1021
1020
1017
1015
1018
1020
1022
1021
1018
1016
1019
1018
1021
1019
1013
1013
1011
1018
1017
1016
1019
1019
1022
1025
1025
1025
1023
1023
1023
1023
1024
1018
1013
1008
1007
1010
1010
1009
1009
1018
1035
1055
1073
1089
1102
1106
1111
1124
1146
1170
1189
1190
1184
1177
1165
1152
1134
1112
1084
1050
1021
1004
992
992
992
991
983
975
971
976
986
992
998
1008
1016
1018
1024
1023
1020
1009
1005
1001
1004
1005
1008
1007
1005
1004
1005
1006
1009
1006
1006
1002
1005
1007
1007
1005
1003
1002
1004
1009
1008
1008
1005
1005
1006
1009
1009
1007
1007
